x,y,theta
0.001713896969727638,0.0001052170217962634,-0.00038450726504629386
0.0017185439520419586,0.00010553766687535442,-0.00038565107953040547
0.0017235644639720382,0.0001058476903907416,-0.0003868170663506826
0.0017293934043377118,0.00010616514090503932,-0.0003879693396247568
0.0017340403879384791,0.00010648578234624263,-0.0003891131218105285
0.0017390609011040843,0.00010679580155728208,-0.0003902790748966707
0.0017448898427874365,0.0001071132471209785,-0.0003914313090246723
0.0036051233455356123,6.314678646703177e-05,-0.0006798229276330647
0.009176170466424629,-7.502270288441352e-05,-0.0015612471177753695
0.018429860823513392,-0.00030725459251681027,-0.00296529715599468
0.02990942080120511,-4.488868504600655e-05,-0.0010354884886884944
0.042717119690693243,0.0010860051518038858,0.006245042401530257
0.05683064508636015,0.003166123995675184,0.018838256685415933
0.07229047618527266,0.006372671022791628,0.037154430019397444
0.0891039495387365,0.010849156412128524,0.06117330520658598
0.10712355543099117,0.01673877434240167,0.09088872743820177
0.12603180733729513,0.024140634776627905,0.12618784825047769
0.14475432286845805,0.03250906480225364,0.16326505952634532
0.16276548857164702,0.04170653402985724,0.201742988613365
0.18029625095015017,0.05156416371108696,0.24130743729545628
0.19837395454197856,0.06128419038380233,0.2798769388090226
0.21685260308603643,0.07090488262404179,0.3177842641233229
0.2347783918732025,0.08151503227089547,0.3542785999153596
0.25175881026240643,0.09377488067664819,0.3892135705241396
0.267999322283811,0.10660004064794822,0.42494314847983644
0.28352538636414887,0.11986085995413114,0.46263897811495125
0.2988382521977799,0.13355583314986325,0.4997317318680808
0.3128446289211043,0.14814408303956966,0.5385992762512837
0.3267537860768944,0.16327392063096918,0.5753685732885225
0.3396702722347958,0.17880277508327216,0.6136442871938361
0.3514585283090682,0.19487844741393023,0.6535575924465608
0.36256688265649845,0.21141991156037573,0.693545958223116
0.3730043113220874,0.22839112524645389,0.7335387740439727
0.3827548223947831,0.24576610085919348,0.773531877557717
0.3918028224843876,0.2635170643924705,0.8135252219844354
0.40013383455373197,0.2816156261512892,0.8535188011998103
0.4077345285189155,0.30003283931900787,0.8935126068856684
0.41459274280567865,0.3187392466024886,0.9335066286114009
0.4207190230764556,0.33770692588576023,0.973462400536117
0.42608468624975737,0.35690529501861357,1.0134176431578057
0.4306766495536122,0.37630159464387236,1.05337616226154
0.43449297076268556,0.3958662272673118,1.0933306731939476
0.4375241919492213,0.41556730911223944,1.1332863458440803
0.4397637556408246,0.4353723299468574,1.1732442945671382
0.441213004831253,0.45525162741779324,1.213197794296697
0.4418664063253032,0.4751726042785674,1.2531521508026136
0.4417214086663137,0.4951022875291706,1.2931088913849678
0.4407827582766306,0.5150111393102564,1.3330608339908723
0.43904894024868873,0.5348662849630619,1.373013513527307
0.436521448892328,0.5546347472916863,1.4129688713275912
0.43320835222142523,0.5742875604778985,1.452919169771713
0.42911218863521017,0.5937920303197816,1.4928701984947548
0.42498816267551964,0.6132925059827261,1.5279317201007747
0.4216626311644094,0.6331297204816451,1.5541454208618464
0.4184734946859224,0.652670268502517,1.5761615637267152
0.41489342167399046,0.672070389434167,1.5979208057658296
0.41089256026769366,0.6913879122697525,1.6196794765493085
0.40708736523544153,0.7109377241875238,1.637141379498848
0.40407823270424587,0.7310882333480461,1.646484387696463
0.402104099794574,0.7519791212469823,1.647591460312053
0.40142058150480964,0.7734292831022592,1.6403332185168606
0.4020430771942978,0.7954050710343441,1.625718051133993
0.40416426693515606,0.8180676573253582,1.6044501595199574
0.4075065819771628,0.8407768800261748,1.5789945269268675
0.4117219019696121,0.8628820951461951,1.5515291881178024
0.41675928683788543,0.8843351502991307,1.5220957816204017
0.4226551527068602,0.9051178425671924,1.4906825761403373
0.4289696683100781,0.925114218048729,1.4616094996007067
0.4346630724524528,0.9451133917857336,1.4397967812762578
0.43998227208290325,0.9642969453162626,1.4223969909047591
0.4455011872604233,0.9832519594367403,1.405776355605295
0.4513347453313206,1.00211256052851,1.3891547092257925
0.45694907854057265,1.0212277668479568,1.3770428572264906
0.46179444381064644,1.0410280428185128,1.3732767298997484
0.4655995193556705,1.0617845243334734,1.3778344619757636
0.46802866086321543,1.0835127203862052,1.3909147115414218
0.4690607657283174,1.1059214275743543,1.4112895983490186
0.4686249354838933,1.1288356704407387,1.4366092201338154
0.46718054089765704,1.1512789233522736,1.4641724538193668
0.4647483027765072,1.173198150292885,1.4937494508365072
0.46133459634167884,1.194577009279408,1.5252234025800084
0.4569495860942392,1.2153967513439032,1.558478381330531
0.4522809271630296,1.2356861440909876,1.5890688568171216
0.4482540171058252,1.2563301688336521,1.6112868206443907
0.44513053426248117,1.277666333715448,1.6248152752169867
0.44284831109135,1.2991202956405519,1.6319644098508317
0.44110578534272743,1.319785799163723,1.634993056498578
0.44016012299222157,1.3402927823693747,1.6323655474074803
0.44022204679363663,1.361118786766435,1.6228141588753244
0.44163335626250544,1.3824927016194206,1.6060666816770697
0.44458753131072615,1.4045849517851234,1.5826230311505252
0.4487440667962548,1.4266890183932444,1.5550860411275809
0.45373222240011163,1.4481376872899345,1.5255491632572973
0.4595958419365676,1.4689493354956435,1.4941641645926174
0.46632124498850175,1.4890721598004693,1.4609696675715582
0.47391120320973873,1.5084580664239973,1.4258386020753928
0.4824202870604731,1.5270822495809213,1.3890146447237517
0.4912426750537462,1.5453520784987467,1.3559499074844064
0.49963861421467676,1.5638669858331666,1.3324960811935243
0.5074193311008005,1.5829118501354993,1.3184656859751596
0.5141447297768531,1.603023346389863,1.313227515814336
0.5194850254571002,1.6242229131649475,1.3153717570974752
0.5238098280037723,1.6457162906777345,1.3243482888451512
0.5270183192821759,1.6676978329483059,1.3414997978262821
0.5286624124507404,1.6905236307407439,1.3646095578482187
0.5290972826740775,1.7132868357388085,1.390905682216117
0.5285034759485658,1.7355771485375708,1.4193490232313872
0.5268828547737275,1.75737939035099,1.4498200316627248
0.5242421629731018,1.7786743917907293,1.4822037790361058
0.5205922910297762,1.7994402115338628,1.5163872822889706
0.5159477455878023,1.8196531022912636,1.5522576831264245
0.5103305548157243,1.839285860034903,1.5897109698315708
0.504501511482804,1.85863228143688,1.6236618625113213
0.4992054844560879,1.8782518521997964,1.648959042061726
0.4946596120354027,1.8984406002442187,1.6651894241938907
0.4912071103502038,1.9195432840431075,1.6727015013377013
0.48903049973893553,1.941266087295745,1.6724503113665241
0.4877494911211464,1.962840505134967,1.6660031048396267
0.4875497627471052,1.9847734584326082,1.6524810351583799
0.4888409832212616,2.007405321952947,1.6322846176397103
0.4914676698704238,2.0302967836639705,1.6072952731854582
0.495009188617667,2.052620381913034,1.5802478322214233
0.4994432416237926,2.0743449821652913,1.5512629107286229
0.5047232884110454,2.0954322356616397,1.5203551949324976
0.5108571065085273,2.11584799931752,1.48754856571524
0.5179164557019698,2.1355794056129738,1.4530406078999185
0.525854912012881,2.1545803561744084,1.4167627286524254
0.5340945321532659,2.1731422578861204,1.3842498799684748
0.5418676021955972,2.1919829394050896,1.3612127320659366
0.5487871161887644,2.2115897261078272,1.3473282460694047
0.554549320397871,2.2319658762762136,1.3406095815984174
0.5595415376507615,2.2517883836503616,1.3385417328870777
0.5636944818702946,2.271662005681073,1.342583427290633
0.5668259164228829,2.292222521869641,1.3548146635139227
0.5687071834555205,2.313401528032864,1.3748527789063318
0.568966406390056,2.3354753926547707,1.4009126666101155
0.5679669691048698,2.3575538010384847,1.4302698672151548
0.565942544784696,2.37913719592431,1.4616086056269117
0.5629006619798429,2.4002056604705087,1.4948122560155332
0.5588539013400083,2.420736210951739,1.5297684129165325
0.5538179899308757,2.440704031455207,1.5663645524347871
0.5478212223416099,2.4600801986249703,1.6045063838781062
0.5416148412806714,2.4791999273954124,1.6389945267468506
0.5359162594897723,2.498571025008808,1.6646823166051627
0.5308972862783742,2.5184435914345884,1.6814004386895223
0.5269212169666078,2.539208967104462,1.6890822469370923
0.5243218808766049,2.560815768589621,1.6884295041766337
0.5229199517591852,2.582874286127708,1.6801797323486094
0.5226684163914368,2.6053461673908016,1.664891075012732
0.5239350045351072,2.628515658677528,1.6432130412058947
0.5262962976325566,2.6514689141799375,1.6183020124760747
0.529576325547793,2.673851943481762,1.5913430407710982
0.533770659367723,2.6956533274400982,1.5624539236440822
0.5388265649397801,2.7168242431492557,1.5316721620520946
0.5447416112778614,2.7373477035553497,1.4989828102995322
0.551538736296587,2.757177166690237,1.464505432477227
0.5586736015456074,2.776457563687283,1.4333475160282756
0.5652591239659741,2.7960764109462253,1.4113550088034186
0.5708493003276077,2.81645388794231,1.3976329198226645
0.5757176549559279,2.836401767006883,1.3890363977876041
0.580197957283116,2.855797176109628,1.3833582874397718
0.5842442294831823,2.8755736501037874,1.381964514337486
0.5873407375142512,2.896069445376711,1.388649131276501
0.5891891130912744,2.9174621731648496,1.4032250706842861
0.5895812792008678,2.939651828581263,1.4249449240756518
0.5886690371056581,2.962008557024818,1.4507460135518107
0.5867854982958878,2.983837920462944,1.4786731195243248
0.5843298956393291,3.004541181928935,1.5056042073459803
0.5817656439689037,3.0241976414053164,1.5296823168617557
0.578708603649109,3.0436905273509343,1.5538253527136554
0.5751819948734309,3.063103939646232,1.5779682378074529
0.5718343185458606,3.0827154428450165,1.5978892734154013
0.5692891207532882,3.1027538045380836,1.6099131710666308
0.567803724601535,3.1233055310484317,1.6133504381238275
0.5674718682523949,3.144340132378712,1.6089328835865786
0.568385333393332,3.165827212090955,1.5977866689239115
0.5706111615311881,3.1878365626671643,1.5800752937997298
0.5742732471401574,3.2103886404557356,1.5558923788590393
0.5788433097469748,3.2324944280030135,1.5288972214779688
0.5842346644222581,3.253927422286264,1.499804619593921
0.5904876521769891,3.2746715827595057,1.4687938409379864
0.5971776471600861,3.294732387498957,1.4403382252950512
0.6032604032287631,3.315145352953696,1.4206047006934812
0.6084616471406645,3.335831404525687,1.4078181093559161
0.6130692823113331,3.355723364593568,1.399501109635668
0.6173690535981717,3.3751328519437904,1.3937026137293078
0.6212353473922847,3.3949305138377706,1.3921519023951834
0.6240857603640209,3.41544092345076,1.3989538729050983
0.6256587931737699,3.436528849974809,1.4137182406064053
0.6257898407929435,3.458211029621425,1.4342875145977876
0.6249319705685997,3.4794925299234634,1.4576581979097238
0.6238360883603378,3.5001225215950487,1.478644046730005
0.6230089523739042,3.5202702337380587,1.4953381455245511
0.6216899649198981,3.5401356884340562,1.5129736555095783
0.6198807060359747,3.5597863142367214,1.5313863072590843
0.6177100663377333,3.579400134353823,1.5497985045968463
0.6158521151700952,3.599230180846393,1.5638630019176156
0.6151430983904785,3.619546621166947,1.5690133106284836
0.6157656574054785,3.6405249895149967,1.5652150639776221
0.61737869602865,3.661560925722088,1.5556974519336182
0.6196116946676518,3.681884738868605,1.5434844853469618
0.6228209481137842,3.7020847840549567,1.526558852278524
0.6269968457560409,3.7220026753756916,1.5056858511735562
0.6318989797209628,3.741260927308908,1.4826653030105057
0.6373834734697059,3.760215666612276,1.458903202139995
0.6433178154778723,3.7790321624739946,1.4351328280284972
0.6491244900267945,3.7980262147312835,1.4159201758909115
0.6541662644917321,3.817664159776564,1.4055024810698629
0.65802607924897,3.8383898998761645,1.4036369271270175
0.660889084304605,3.8592872053257397,1.4076244117827257
0.6629570381150878,3.8795358436820635,1.4151048717768506
0.664284847632562,3.899485735381294,1.4272152598152288
0.6643171310897149,3.920114785799841,1.4459923944344937
0.6632901404655728,3.9405402691436024,1.4682641706078794
0.6613837620357779,3.960387380386271,1.4928631285643212
0.6588238441717361,3.9799582731505803,1.518392909338637
0.6564412902443097,3.9996927752062974,1.5394596936068616
0.6551246175379666,4.0199758677720245,1.551405239988435
0.6549981460497731,4.040651233083657,1.5545274717842423
0.6554781397423137,4.060789112501453,1.553539986020777
0.6560869210666017,4.080752840252351,1.5518713113003326
0.657281536208736,4.1009276177393,1.5465191991234672
0.659768850944442,4.121603482190486,1.5337328472017138
0.6631649398574935,4.141982356990455,1.5169173552819795
0.6672721100494058,4.161657318863223,1.497626826343069
0.6720279673766012,4.180821241170479,1.4766854192841201
0.6766000333529836,4.200208659625777,1.4600869122508167
0.6802082987565793,4.220292603385729,1.451776066702642
0.6832560328194771,4.240041441013808,1.4475277197018868
0.686324953121693,4.259714039752404,1.443609625533143
0.6894708991430486,4.279374421543104,1.4396913463993422
0.6921155024958151,4.299486153402651,1.4398225324599994
0.6936755015698454,4.320308387001,1.4472002249709819
0.6945080223221796,4.340820603524834,1.4578227595524906
0.6948688517362323,4.360942951668606,1.4697120238651522
0.694951633840112,4.381124012903553,1.4818718986060413
0.6953910748841451,4.401280596099339,1.4900780135425036
0.6962885844810853,4.42131972359515,1.4945827639218183
0.6971017153166406,4.441332323414789,1.499072316040221
0.6977557720310363,4.461396187247855,1.503977105411585
0.6983170169741326,4.481517593727169,1.508876643752967
0.6993803245565811,4.501820553238552,1.5097101978864818
0.7012286684264178,4.5218576154161125,1.5056988706398702
0.7033279161622584,4.541637171524251,1.5006462600106463
0.7055291917651696,4.561402557398346,1.4955790638982511
0.7078305576093952,4.581156549138938,1.4905119513271765
0.7099060420575679,4.601021529519183,1.4875433269092055
0.7119868007768354,4.620873065365594,1.4848977758650006
0.714125356101674,4.640704517744854,1.4822066256451198
0.7163212085724178,4.660527605188024,1.4794951404699042
0.7185694153553986,4.680347402234161,1.4767947913755115
0.7203987072779667,4.700303637584241,1.477162427097647
0.7220006653626242,4.720272958859911,1.4788513128700378
0.7235675413193184,4.740252844152149,1.480562647830161
0.725100069333246,4.76023601685296,1.4822766307783484
0.7265979015683416,4.780222648300127,1.4839940456285026
0.7281750274761397,4.800181355852175,1.4849630633915576
0.7297357134684664,4.820139985761796,1.4859196307943048
0.7312742892155342,4.840103511810924,1.4868856789011777
0.7327952444108676,4.860065738683589,1.487857293150179
0.7342924080918848,4.880037309632586,1.4888499149441115
0.7359762291099717,4.899974330921082,1.4885486475724223
0.737689354716268,4.919900709963059,1.4881095417089332
0.7394134165165782,4.939822122477821,1.4876542166829723
0.7411479486632543,4.95974006400066,1.4871887575700902
0.7428917259399327,4.979657195835879,1.4867233014693464
0.7446191422153235,4.999579474470919,1.486421070535084
0.7463522330644852,5.019501579879347,1.4861206869984591
0.748091325866655,5.03942315504229,1.4858202683922337
0.7498359220407165,5.059345371539685,1.4855243890564036
0.7515855675849398,5.079268473718765,1.48523391723624
0.7532750549897319,5.099204186070575,1.4853467913419993
0.7549678666380248,5.119132190928503,1.4854351549346483
0.75665893835142,5.139060303687232,1.4855232777914156
0.758348251046868,5.15898856609847,1.4856114113441845
0.7600358061083279,5.178916978199189,1.4856995532951565
0.7617241807324168,5.198845423612519,1.4857709816984968
0.7634070809021483,5.218776908870913,1.485856643158839
0.7650867531605787,5.238711201989625,1.485947124109085
0.7667650264589416,5.258645956202306,1.486033868141044
0.7684411503213994,5.278581553548557,1.4861218522233703
0.7701311221479478,5.29851437077727,1.4861136259361634
0.7718220878475047,5.318447417018356,1.4861005162766503
0.7735127469844594,5.338381080580232,1.486089548574608
0.7752038059562992,5.358312063453394,1.4860803707023154
0.7768953214175556,5.378244112089765,1.4860766820575022
0.7785895478835805,5.398177541657165,1.4860659413515669
0.7802842517022293,5.418110852393252,1.486054801803824
0.7819815102754984,5.438040162709033,1.486028688933583
0.7836800943900618,5.457967644923317,1.4859955849423119
0.7853793271274636,5.477895069692885,1.485962459073186
0.7870765373603704,5.497822665796624,1.4859461838043502
0.7887740625216877,5.517750234006756,1.485929940274952
0.7904649212310377,5.537689247948409,1.4859543692607005
0.7921594709408146,5.557622181411388,1.4859582317329287
0.7938539377131254,5.577555145354659,1.4859622616196881
0.7955470480073155,5.597488416580113,1.4859744247052948
0.7972398914812108,5.617421728148696,1.4859867026031022
0.7989324847484021,5.637355061171982,1.4859989974188526
0.8006248280216447,5.657288414691321,1.4860113065282536
0.8023199862886952,5.6772162176553485,1.4860025553707015
0.8040168640035773,5.697143832641514,1.485983313142356
0.8057141304717319,5.7170714139172505,1.4859640500314992
0.8074117789551248,5.736998962641263,1.4859447972992492
0.8091098095686996,5.756926479035787,1.4859255543470655
0.8108082222195602,5.776853963327398,1.4859063206521101
0.8125044774125727,5.796781632034076,1.485903047927213
0.8142007860623105,5.816709296875449,1.485899824079728
0.8158971587609063,5.836636957270366,1.4858966039754937
0.8175935953315207,5.8565646133451335,1.4858933863799089
0.8192900961203192,5.876492265139317,1.4858901688232766
0.820985723076527,5.896419992586101,1.4858928440278387
0.822681293668901,5.916347725953165,1.4858955296520955
0.8243768122402602,5.936275464862973,1.4858982072190146
0.826072279135455,5.956203209171769,1.4859008747994733
0.8277676948584597,5.97613095868367,1.485903530394675
0.8294632671618598,5.996058695518536,1.4859048703377917
0.8311588160383545,6.015986434812598,1.4859061920812857
0.8328543410172985,6.035914176363488,1.4859074985028677
0.8345498424405109,6.055841919905494,1.4859087894094027
0.8362453205285416,6.075769665184392,1.4859100652371358
0.8379349597137639,6.095707209161533,1.4859438138974104
0.8396299417052203,6.115635038541798,1.4859442125636662
0.8413229849024584,6.1355662219463944,1.4859561845545028
0.8430128553469839,6.155497902420703,1.4859808070277631
0.844700725137568,6.175431036515528,1.4859988483902316
0.8463935599750128,6.195363778034712,1.4860055419446543
0.8480863104337947,6.215297004377517,1.4860139497062366
0.8497789227863624,6.235230244446053,1.4860223701958155
0.8514713714195844,6.255163497814701,1.4860307961320347
0.8531636525860586,6.275096763820903,1.486039226023778
0.8548584680316168,6.2950271991776905,1.4860288420749526
0.856555125023128,6.314954836547603,1.4860077442020205
0.8582521983276862,6.334882434415442,1.4859866379724092
0.8599496906774073,6.354809996447915,1.485965541103413
0.8616476018940549,6.374737522925996,1.4859444540530844
0.86334439671375,6.394665144793853,1.485933020000458
0.8650414115453762,6.414592748407681,1.485921620152466
0.8667386527330206,6.434520333523154,1.4859102270621112
0.8684361201524758,6.45444790031375,1.4858988395764097
0.8701338140386558,6.474375448886663,1.4858874555721182
0.8718304323714953,6.494303090255806,1.4858842537867358
0.8735271093250346,6.514230727755058,1.4858810721590083
0.87522385068215,6.534158360974465,1.4858778859128368
0.8769206566982932,6.554085989840265,1.4858746930050795
0.8786175278790056,6.574013614213023,1.4858714910376605
